1.00E+00,9.23E-01,7.19E-01,4.23E-01,1.89E-01,1.41E-01,1.45E-01,1.25E-01,1.06E-01,8.65E-02,7.80E-02,6.94E-02,5.24E-02,3.65E-02,2.31E-02,1.22E-02,8.53E-03,6.09E-03,0.00E+00,3.65E-03,1.22E-02,1.83E-02,3.78E-02,6.46E-02,9.50E-02,1.18E-01,1.52E-01,1.96E-01,2.20E-01,2.42E-01,2.78E-01,2.96E-01,3.01E-01,3.06E-01,3.08E-01,3.07E-01,3.00E-01,2.79E-01,2.64E-01,2.61E-01,2.45E-01,2.31E-01,2.25E-01,2.23E-01,2.29E-01,2.25E-01,2.31E-01,2.44E-01,2.42E-01,2.44E-01,2.55E-01,2.62E-01,2.85E-01,3.01E-01,3.09E-01,3.13E-01,2.98E-01,2.69E-01,2.47E-01,2.38E-01,2.35E-01,2.34E-01,2.31E-01,2.38E-01,2.42E-01,2.35E-01,2.39E-01,2.40E-01,2.67E-01,4.19E-01,6.52E-01,8.26E-01,7.21E-01,4.29E-01,1.78E-01,9.74E-02,1.29E-01,1.69E-01,1.80E-01,1.69E-01,1.64E-01,1.68E-01,1.63E-01,1.68E-01,1.68E-01,0.00E+00,0.00E+00,0.00E+00,0.00E+00,0.00E+00,0.00E+00,0.00E+00,0.00E+00,0.00E+00,0.00E+00,0.00E+00,0.00E+00,0.00E+00,0.00E+00,0.00E+00,0.00E+00,0.00E+00,0.00E+00,0.00E+00,0.00E+00,0.00E+00,0.00E+00,0.00E+00,0.00E+00,0.00E+00,0.00E+00,0.00E+00,0.00E+00,0.00E+00,0.00E+00,0.00E+00,0.00E+00,0.00E+00,0.00E+00,0.00E+00,0.00E+00,0.00E+00,0.00E+00,0.00E+00,0.00E+00,0.00E+00,0.00E+00,0.00E+00,0.00E+00,0.00E+00,0.00E+00,0.00E+00,0.00E+00,0.00E+00,0.00E+00,0.00E+00,0.00E+00,0.00E+00,0.00E+00,0.00E+00,0.00E+00,0.00E+00,0.00E+00,0.00E+00,0.00E+00,0.00E+00,0.00E+00,0.00E+00,0.00E+00,0.00E+00,0.00E+00,0.00E+00,0.00E+00,0.00E+00,0.00E+00,0.00E+00,0.00E+00,0.00E+00,0.00E+00,0.00E+00,0.00E+00,0.00E+00,0.00E+00,0.00E+00,0.00E+00,0.00E+00,0.00E+00,0.00E+00,0.00E+00,0.00E+00,0.00E+00,0.00E+00,0.00E+00,0.00E+00,0.00E+00,0.00E+00,0.00E+00,0.00E+00,0.00E+00,0.00E+00,0.00E+00,0.00E+00,0.00E+00,0.00E+00,0.00E+00,0.00E+00,0.00E+00,2.00E+00
1.00E+00,8.51E-01,5.52E-01,2.81E-01,9.90E-02,4.65E-02,3.64E-02,4.44E-02,5.66E-02,7.88E-02,5.05E-02,2.83E-02,2.02E-02,4.85E-02,4.85E-02,5.05E-02,4.24E-02,1.62E-02,6.06E-03,8.08E-03,4.04E-03,0.00E+00,0.00E+00,2.02E-03,4.04E-03,8.08E-03,1.41E-02,2.83E-02,4.44E-02,6.06E-02,8.08E-02,9.49E-02,1.19E-01,1.43E-01,1.56E-01,1.64E-01,1.74E-01,1.70E-01,1.80E-01,1.72E-01,1.76E-01,1.78E-01,1.80E-01,1.78E-01,1.76E-01,1.78E-01,1.82E-01,1.86E-01,1.86E-01,1.82E-01,1.80E-01,1.78E-01,1.78E-01,1.78E-01,1.74E-01,1.70E-01,1.70E-01,1.70E-01,1.62E-01,1.66E-01,1.58E-01,1.58E-01,1.62E-01,1.68E-01,1.68E-01,1.66E-01,1.72E-01,1.70E-01,1.68E-01,1.74E-01,1.66E-01,1.64E-01,1.64E-01,1.66E-01,1.64E-01,1.64E-01,1.70E-01,1.68E-01,1.70E-01,1.70E-01,1.66E-01,1.72E-01,1.68E-01,1.70E-01,1.76E-01,1.74E-01,1.70E-01,1.78E-01,1.72E-01,1.76E-01,1.78E-01,1.82E-01,1.78E-01,1.76E-01,1.72E-01,1.72E-01,1.74E-01,1.78E-01,1.76E-01,1.98E-01,2.18E-01,2.16E-01,2.22E-01,2.38E-01,2.46E-01,2.55E-01,2.42E-01,2.40E-01,2.10E-01,1.52E-01,1.41E-01,1.35E-01,1.41E-01,1.37E-01,1.43E-01,1.47E-01,1.62E-01,1.62E-01,1.58E-01,1.60E-01,2.04E-01,3.72E-01,5.54E-01,7.29E-01,7.66E-01,5.84E-01,4.26E-01,3.23E-01,2.04E-01,1.35E-01,8.08E-02,6.87E-02,6.26E-02,5.45E-02,6.26E-02,7.07E-02,6.67E-02,6.06E-02,6.26E-02,6.26E-02,6.46E-02,6.46E-02,0.00E+00,0.00E+00,0.00E+00,0.00E+00,0.00E+00,0.00E+00,0.00E+00,0.00E+00,0.00E+00,0.00E+00,0.00E+00,0.00E+00,0.00E+00,0.00E+00,0.00E+00,0.00E+00,0.00E+00,0.00E+00,0.00E+00,0.00E+00,0.00E+00,0.00E+00,0.00E+00,0.00E+00,0.00E+00,0.00E+00,0.00E+00,0.00E+00,0.00E+00,0.00E+00,0.00E+00,0.00E+00,0.00E+00,0.00E+00,0.00E+00,0.00E+00,0.00E+00,0.00E+00,0.00E+00,0.00E+00,0.00E+00,0.00E+00,0.00E+00,0.00E+00,0.00E+00,2.00E+00
9.81E-01,7.80E-01,1.51E-01,3.86E-02,1.16E-01,1.12E-01,8.88E-02,1.70E-01,1.54E-01,1.24E-01,1.54E-01,2.20E-01,2.90E-01,2.93E-01,2.93E-01,2.93E-01,2.90E-01,2.86E-01,3.17E-01,3.17E-01,3.13E-01,3.05E-01,3.24E-01,3.17E-01,3.20E-01,3.40E-01,3.59E-01,3.59E-01,3.78E-01,3.98E-01,4.17E-01,4.44E-01,4.67E-01,4.94E-01,5.21E-01,5.41E-01,5.56E-01,5.41E-01,5.44E-01,5.44E-01,5.02E-01,4.63E-01,4.29E-01,3.67E-01,3.36E-01,3.01E-01,2.93E-01,2.90E-01,2.66E-01,2.55E-01,2.78E-01,2.82E-01,2.70E-01,2.59E-01,2.74E-01,2.74E-01,2.55E-01,2.47E-01,2.55E-01,2.47E-01,2.47E-01,2.43E-01,2.63E-01,2.97E-01,2.90E-01,2.86E-01,2.78E-01,2.66E-01,2.66E-01,2.55E-01,2.55E-01,2.97E-01,2.82E-01,2.47E-01,2.59E-01,2.74E-01,2.74E-01,2.70E-01,2.78E-01,2.90E-01,2.86E-01,2.63E-01,2.78E-01,2.93E-01,2.97E-01,3.09E-01,4.25E-01,7.30E-01,1.00E+00,6.45E-01,8.88E-02,0.00E+00,7.72E-02,8.88E-02,7.72E-02,1.47E-01,1.35E-01,1.12E-01,1.62E-01,2.39E-01,2.70E-01,2.47E-01,2.59E-01,2.70E-01,0.00E+00,0.00E+00,0.00E+00,0.00E+00,0.00E+00,0.00E+00,0.00E+00,0.00E+00,0.00E+00,0.00E+00,0.00E+00,0.00E+00,0.00E+00,0.00E+00,0.00E+00,0.00E+00,0.00E+00,0.00E+00,0.00E+00,0.00E+00,0.00E+00,0.00E+00,0.00E+00,0.00E+00,0.00E+00,0.00E+00,0.00E+00,0.00E+00,0.00E+00,0.00E+00,0.00E+00,0.00E+00,0.00E+00,0.00E+00,0.00E+00,0.00E+00,0.00E+00,0.00E+00,0.00E+00,0.00E+00,0.00E+00,0.00E+00,0.00E+00,0.00E+00,0.00E+00,0.00E+00,0.00E+00,0.00E+00,0.00E+00,0.00E+00,0.00E+00,0.00E+00,0.00E+00,0.00E+00,0.00E+00,0.00E+00,0.00E+00,0.00E+00,0.00E+00,0.00E+00,0.00E+00,0.00E+00,0.00E+00,0.00E+00,0.00E+00,0.00E+00,0.00E+00,0.00E+00,0.00E+00,0.00E+00,0.00E+00,0.00E+00,0.00E+00,0.00E+00,0.00E+00,0.00E+00,0.00E+00,0.00E+00,0.00E+00,0.00E+00,0.00E+00,0.00E+00,0.00E+00,1.00E+00
0.00E+00,2.67E-02,1.46E-01,2.00E-01,2.71E-01,3.18E-01,3.74E-01,3.97E-01,4.11E-01,4.47E-01,5.11E-01,5.47E-01,5.57E-01,5.78E-01,5.89E-01,6.02E-01,6.23E-01,6.41E-01,6.55E-01,6.64E-01,6.78E-01,6.85E-01,6.88E-01,7.03E-01,7.03E-01,7.02E-01,7.02E-01,6.82E-01,6.72E-01,6.54E-01,6.33E-01,6.15E-01,5.96E-01,5.74E-01,5.58E-01,5.39E-01,5.26E-01,5.13E-01,5.08E-01,4.95E-01,5.11E-01,5.12E-01,5.36E-01,5.70E-01,5.99E-01,6.29E-01,7.00E-01,7.68E-01,8.78E-01,9.80E-01,1.00E+00,9.59E-01,6.67E-01,4.30E-01,3.45E-01,3.60E-01,3.59E-01,3.54E-01,3.63E-01,3.52E-01,3.46E-01,3.32E-01,3.47E-01,3.26E-01,3.00E-01,2.98E-01,3.02E-01,2.88E-01,2.71E-01,2.77E-01,2.74E-01,2.87E-01,2.95E-01,2.87E-01,2.88E-01,2.76E-01,2.87E-01,2.83E-01,2.93E-01,0.00E+00,0.00E+00,0.00E+00,0.00E+00,0.00E+00,0.00E+00,0.00E+00,0.00E+00,0.00E+00,0.00E+00,0.00E+00,0.00E+00,0.00E+00,0.00E+00,0.00E+00,0.00E+00,0.00E+00,0.00E+00,0.00E+00,0.00E+00,0.00E+00,0.00E+00,0.00E+00,0.00E+00,0.00E+00,0.00E+00,0.00E+00,0.00E+00,0.00E+00,0.00E+00,0.00E+00,0.00E+00,0.00E+00,0.00E+00,0.00E+00,0.00E+00,0.00E+00,0.00E+00,0.00E+00,0.00E+00,0.00E+00,0.00E+00,0.00E+00,0.00E+00,0.00E+00,0.00E+00,0.00E+00,0.00E+00,0.00E+00,0.00E+00,0.00E+00,0.00E+00,0.00E+00,0.00E+00,0.00E+00,0.00E+00,0.00E+00,0.00E+00,0.00E+00,0.00E+00,0.00E+00,0.00E+00,0.00E+00,0.00E+00,0.00E+00,0.00E+00,0.00E+00,0.00E+00,0.00E+00,0.00E+00,0.00E+00,0.00E+00,0.00E+00,0.00E+00,0.00E+00,0.00E+00,0.00E+00,0.00E+00,0.00E+00,0.00E+00,0.00E+00,0.00E+00,0.00E+00,0.00E+00,0.00E+00,0.00E+00,0.00E+00,0.00E+00,0.00E+00,0.00E+00,0.00E+00,0.00E+00,0.00E+00,0.00E+00,0.00E+00,0.00E+00,0.00E+00,0.00E+00,0.00E+00,0.00E+00,0.00E+00,0.00E+00,0.00E+00,0.00E+00,0.00E+00,0.00E+00,0.00E+00,0.00E+00,2.00E+00
9.96E-01,9.70E-01,3.30E-01,1.74E-02,9.57E-02,1.52E-01,1.43E-01,1.57E-01,2.52E-01,2.39E-01,1.91E-01,2.13E-01,2.83E-01,3.35E-01,3.57E-01,3.61E-01,3.74E-01,3.70E-01,3.65E-01,3.57E-01,3.87E-01,3.78E-01,3.87E-01,3.83E-01,4.00E-01,4.00E-01,4.04E-01,4.17E-01,4.26E-01,4.43E-01,4.48E-01,4.78E-01,5.30E-01,5.61E-01,5.61E-01,5.74E-01,5.83E-01,6.13E-01,6.00E-01,5.78E-01,5.78E-01,5.52E-01,4.83E-01,4.43E-01,4.26E-01,3.74E-01,3.65E-01,3.52E-01,3.52E-01,3.48E-01,3.26E-01,3.30E-01,3.48E-01,3.52E-01,3.30E-01,3.17E-01,3.39E-01,3.43E-01,3.09E-01,3.09E-01,3.13E-01,3.30E-01,3.22E-01,3.22E-01,3.61E-01,3.78E-01,3.65E-01,3.26E-01,3.52E-01,3.52E-01,3.30E-01,3.39E-01,3.57E-01,3.39E-01,3.39E-01,3.26E-01,3.43E-01,3.57E-01,3.43E-01,3.17E-01,3.39E-01,3.43E-01,3.39E-01,3.48E-01,3.52E-01,3.78E-01,4.04E-01,4.96E-01,7.61E-01,1.00E+00,6.96E-01,6.96E-02,0.00E+00,1.43E-01,1.43E-01,1.61E-01,2.52E-01,2.17E-01,1.83E-01,2.39E-01,3.04E-01,3.57E-01,3.57E-01,3.30E-01,3.48E-01,3.61E-01,3.48E-01,3.39E-01,3.65E-01,3.83E-01,3.61E-01,3.52E-01,3.70E-01,3.87E-01,3.87E-01,3.96E-01,4.30E-01,4.61E-01,4.78E-01,5.09E-01,5.48E-01,5.61E-01,5.70E-01,5.74E-01,5.91E-01,6.00E-01,5.57E-01,5.26E-01,5.09E-01,4.65E-01,4.17E-01,4.04E-01,3.83E-01,3.87E-01,0.00E+00,0.00E+00,0.00E+00,0.00E+00,0.00E+00,0.00E+00,0.00E+00,0.00E+00,0.00E+00,0.00E+00,0.00E+00,0.00E+00,0.00E+00,0.00E+00,0.00E+00,0.00E+00,0.00E+00,0.00E+00,0.00E+00,0.00E+00,0.00E+00,0.00E+00,0.00E+00,0.00E+00,0.00E+00,0.00E+00,0.00E+00,0.00E+00,0.00E+00,0.00E+00,0.00E+00,0.00E+00,0.00E+00,0.00E+00,0.00E+00,0.00E+00,0.00E+00,0.00E+00,0.00E+00,0.00E+00,0.00E+00,0.00E+00,0.00E+00,0.00E+00,0.00E+00,0.00E+00,0.00E+00,0.00E+00,0.00E+00,0.00E+00,0.00E+00,0.00E+00,0.00E+00,1.00E+00
9.50E-01,1.00E+00,2.94E-01,0.00E+00,1.34E-01,1.84E-01,1.44E-01,2.54E-01,2.64E-01,2.14E-01,2.29E-01,3.28E-01,4.43E-01,4.63E-01,4.18E-01,4.23E-01,4.53E-01,4.48E-01,4.33E-01,4.48E-01,4.63E-01,4.58E-01,4.33E-01,4.43E-01,4.73E-01,4.68E-01,4.93E-01,5.42E-01,5.47E-01,5.72E-01,5.97E-01,6.37E-01,6.82E-01,6.82E-01,6.77E-01,6.97E-01,6.92E-01,6.77E-01,6.27E-01,5.92E-01,5.67E-01,5.22E-01,4.83E-01,4.58E-01,4.58E-01,4.38E-01,4.13E-01,3.88E-01,3.98E-01,3.93E-01,3.98E-01,3.93E-01,3.98E-01,3.73E-01,3.23E-01,3.53E-01,3.93E-01,3.98E-01,3.93E-01,4.18E-01,4.48E-01,4.33E-01,4.18E-01,3.93E-01,4.33E-01,4.03E-01,3.88E-01,3.88E-01,4.08E-01,4.28E-01,4.03E-01,3.98E-01,4.28E-01,4.18E-01,3.98E-01,4.18E-01,4.43E-01,4.23E-01,4.18E-01,4.03E-01,4.18E-01,4.33E-01,4.73E-01,5.57E-01,7.86E-01,1.00E+00,8.46E-01,2.24E-01,5.47E-02,1.64E-01,1.84E-01,1.54E-01,1.94E-01,2.39E-01,2.14E-01,2.14E-01,2.94E-01,3.63E-01,4.18E-01,4.18E-01,4.18E-01,4.23E-01,0.00E+00,0.00E+00,0.00E+00,0.00E+00,0.00E+00,0.00E+00,0.00E+00,0.00E+00,0.00E+00,0.00E+00,0.00E+00,0.00E+00,0.00E+00,0.00E+00,0.00E+00,0.00E+00,0.00E+00,0.00E+00,0.00E+00,0.00E+00,0.00E+00,0.00E+00,0.00E+00,0.00E+00,0.00E+00,0.00E+00,0.00E+00,0.00E+00,0.00E+00,0.00E+00,0.00E+00,0.00E+00,0.00E+00,0.00E+00,0.00E+00,0.00E+00,0.00E+00,0.00E+00,0.00E+00,0.00E+00,0.00E+00,0.00E+00,0.00E+00,0.00E+00,0.00E+00,0.00E+00,0.00E+00,0.00E+00,0.00E+00,0.00E+00,0.00E+00,0.00E+00,0.00E+00,0.00E+00,0.00E+00,0.00E+00,0.00E+00,0.00E+00,0.00E+00,0.00E+00,0.00E+00,0.00E+00,0.00E+00,0.00E+00,0.00E+00,0.00E+00,0.00E+00,0.00E+00,0.00E+00,0.00E+00,0.00E+00,0.00E+00,0.00E+00,0.00E+00,0.00E+00,0.00E+00,0.00E+00,0.00E+00,0.00E+00,0.00E+00,0.00E+00,0.00E+00,0.00E+00,0.00E+00,0.00E+00,1.00E+00
